Time,Voltage,Current,Total mAh,Temperature
0.027958393096923828,3.497403,5.962,0.8280555555555555,25.062
0.5296840667724609,3.500357,5.962,1.656111111111111,25.062
1.0297861099243164,3.502486,5.962,2.484166666666667,25.062
1.5305359363555908,3.504918,5.962,3.312222222222222,25.062
2.0298025608062744,3.506755,5.962,4.1402777777777775,25.062
2.544414758682251,3.50927,5.962,4.968333333333333,25.062
3.0255231857299805,3.510742,5.962,5.796388888888888,25.062
3.526304006576538,3.513142,5.962,6.6244444444444435,25.062
4.026552438735962,3.514969,5.962,7.452499999999999,25.062
4.536989688873291,3.516806,5.962,8.280555555555555,25.062
5.036767959594727,3.518131,5.962,9.108611111111111,25.062
5.538259506225586,3.520124,5.962,9.936666666666667,25.062
6.026181221008301,3.521043,5.962,10.764722222222224,25.062
6.526118993759155,3.523151,5.962,11.59277777777778,25.0
7.02895450592041,3.523924,5.962,12.420833333333336,25.0
7.530114412307739,3.525687,5.962,13.248888888888892,25.062
8.067907094955444,3.526982,5.962,14.076944444444448,25.062
8.525726318359375,3.528401,5.962,14.905000000000005,25.062
9.027095794677734,3.529205,5.962,15.733055555555561,25.062
9.525669813156128,3.530666,5.962,16.561111111111117,25.0
10.025681495666504,3.531615,5.962,17.38916666666667,25.062
10.547754526138306,3.53291,5.962,18.217222222222226,25.062
11.035712242126465,3.533494,5.962,19.04527777777778,25.062
11.539218187332153,3.534694,5.962,19.873333333333335,25.062
12.029404640197754,3.535467,5.962,20.70138888888889,25.0
12.5277841091156,3.536792,5.962,21.529444444444444,25.0
13.0267915725708,3.537064,5.962,22.357499999999998,25.0
13.580592155456543,3.538327,5.962,23.185555555555553,25.062
14.026898622512817,3.538848,5.962,24.013611111111107,25.062
14.52622675895691,3.539923,5.962,24.84166666666666,25.062
15.028173446655273,3.540424,5.962,25.669722222222216,25.062
15.530024290084839,3.541729,5.962,26.49777777777777,25.062
16.03725838661194,3.541823,5.962,27.325833333333325,25.062
16.532700300216675,3.543023,5.962,28.15388888888888,25.062
17.03766918182373,3.543242,5.962,28.981944444444434,25.062
17.526683568954468,3.544338,5.962,29.809999999999988,25.062
18.026013612747192,3.544589,5.962,30.638055555555542,25.0
18.527801513671875,3.545392,5.962,31.466111111111097,25.0
19.028688192367554,3.545737,5.962,32.294166666666655,25.0
19.52899742126465,3.546352,5.962,33.12222222222221,25.0
20.03072237968445,3.546968,5.962,33.95027777777777,25.0
20.530580282211304,3.547574,5.962,34.77833333333333,25.062
21.026997804641724,3.547751,5.962,35.60638888888889,25.062
21.526575803756714,3.548617,5.962,36.434444444444445,25.062
22.03835129737854,3.548492,5.962,37.2625,25.062
22.541681051254272,3.549452,5.962,38.09055555555556,25.0
23.039220333099365,3.549567,5.962,38.91861111111112,25.0
23.5261709690094,3.550632,5.962,39.74666666666668,25.0
24.026240348815918,3.550611,5.962,40.574722222222235,25.0
24.529377937316895,3.551394,5.962,41.40277777777779,25.0
25.02657651901245,3.5513,5.962,42.23083333333335,25.0
25.53001070022583,3.552197,5.962,43.05888888888891,25.0
26.026498794555664,3.552562,5.962,43.88694444444447,25.0
26.525842905044556,3.553189,5.962,44.715000000000025,25.0
27.026854038238525,3.553418,5.962,45.54305555555558,25.0
27.537685871124268,3.554212,5.962,46.37111111111114,25.0
28.063857078552246,3.553888,5.962,47.1991666666667,25.0
28.53854274749756,3.554702,5.962,48.02722222222226,25.0
29.030617475509644,3.554368,5.962,48.855277777777815,25.0
29.526917457580566,3.555266,5.962,49.68333333333337,25.0
30.026854276657104,3.555537,5.962,50.51138888888893,25.0
30.526459217071533,3.556038,5.962,51.33944444444449,25.0
31.02727484703064,3.555965,5.962,52.16750000000005,25.0
31.528404474258423,3.557009,5.962,52.995555555555605,25.0
32.028382539749146,3.557019,5.962,53.82361111111116,25.0
32.53026008605957,3.557489,5.962,54.65166666666672,25.0
33.03147339820862,3.557499,5.962,55.47972222222228,25.0
33.56813907623291,3.558386,5.962,56.30777777777784,25.0
34.03868913650513,3.558439,5.962,57.135833333333395,25.0
34.53820753097534,3.558887,5.962,57.96388888888895,25.0
35.02786111831665,3.558501,5.962,58.79194444444451,25.0
35.52705407142639,3.559534,5.962,59.62000000000007,25.0
36.02690076828003,3.559326,5.962,60.44805555555563,25.0
36.52689480781555,3.560067,5.962,61.276111111111184,25.0
37.02975821495056,3.560108,5.962,62.10416666666674,25.0
37.52870535850525,3.56111,5.962,62.9322222222223,25.0
38.03108835220337,3.560985,5.962,63.76027777777786,25.0
38.526644229888916,3.56158,5.962,64.58833333333341,25.0
39.07896089553833,3.561403,5.962,65.41638888888896,25.0
39.5446412563324,3.562091,5.962,66.24444444444451,25.0
40.043614864349365,3.562196,5.962,67.07250000000006,25.062
40.52836728096008,3.56302,5.962,67.90055555555561,25.062
41.030349016189575,3.562749,5.962,68.72861111111116,25.0
41.530596017837524,3.563438,5.962,69.55666666666671,25.0
42.02722501754761,3.563375,5.962,70.38472222222227,25.0
42.52628207206726,3.564252,5.962,71.21277777777782,25.0
43.026209354400635,3.563866,5.962,72.04083333333337,25.0
43.52511668205261,3.564816,5.962,72.86888888888892,25.0
44.03002405166626,3.564795,5.962,73.69694444444447,25.0
44.52595615386963,3.565233,5.962,74.52500000000002,24.937
45.03807258605957,3.565442,5.962,75.35305555555557,24.937
45.5393922328949,3.566266,5.962,76.18111111111112,25.0
46.04676175117493,3.565661,5.962,77.00916666666667,25.0
46.52761626243591,3.566423,5.962,77.83722222222222,25.0
47.02822756767273,3.566694,5.962,78.66527777777777,24.937
47.526670694351196,3.567185,5.962,79.49333333333333,24.937
48.026612997055054,3.567007,5.962,80.32138888888888,25.0
48.52805304527283,3.567811,5.962,81.14944444444443,25.0
49.02799916267395,3.567696,5.962,81.97749999999998,25.0
49.529866218566895,3.568604,5.962,82.80555555555553,25.0
50.031344413757324,3.568197,5.962,83.63361111111108,25.0
50.53071618080139,3.568855,5.962,84.46166666666663,25.0
51.0390739440918,3.568781,5.962,85.28972222222218,25.0
51.53899836540222,3.569616,5.962,86.11777777777773,25.0
52.03629922866821,3.569731,5.962,86.94583333333328,25.0
52.52916097640991,3.570524,5.962,87.77388888888883,24.937
53.03016138076782,3.570316,5.962,88.60194444444438,24.937
53.552237033843994,3.571119,5.962,89.42999999999994,25.0
54.030274629592896,3.570806,5.962,90.25805555555549,25.0
54.5299437046051,3.57162,5.962,91.08611111111104,25.0
55.03083562850952,3.571412,5.962,91.91416666666659,24.937
55.53106164932251,3.572716,5.962,92.74222222222214,24.937
56.03016781806946,3.572059,5.962,93.57027777777769,24.937
56.53780150413513,3.572935,5.962,94.39833333333324,24.937
57.03249907493591,3.572726,5.962,95.22638888888879,25.0
57.54070711135864,3.573885,5.962,96.05444444444434,25.0
58.02655911445618,3.573488,5.962,96.8824999999999,25.0
58.529545307159424,3.573969,5.962,97.71055555555544,24.937
59.06545090675354,3.574229,5.962,98.538611111111,24.937
59.52638292312622,3.57447,5.962,99.36666666666655,24.937
60.03125262260437,3.574376,5.962,100.1947222222221,24.937
60.53071904182434,3.575419,5.962,101.02277777777765,24.937
61.02567219734192,3.574793,5.962,101.8508333333332,24.937
61.525166749954224,3.57615,5.962,102.67888888888875,24.937
62.02613401412964,3.575711,5.962,103.5069444444443,25.0
62.545867919921875,3.576745,5.962,104.33499999999985,25.0
63.043139696121216,3.576526,5.962,105.1630555555554,24.937
63.52892804145813,3.57711,5.962,105.99111111111095,24.937
64.02711200714111,3.577006,5.962,106.8191666666665,24.937
64.57986402511597,3.578039,5.962,107.64722222222206,25.0
65.0268042087555,3.577549,5.962,108.4752777777776,25.0
65.5277750492096,3.578279,5.962,109.30333333333316,24.937
66.03005003929138,3.578342,5.962,110.13138888888871,24.937
66.52873015403748,3.578801,5.962,110.95944444444426,24.937
67.0305724143982,3.578749,5.962,111.78749999999981,24.937
67.53106760978699,3.579396,5.962,112.61555555555536,25.0
68.04345607757568,3.5795,5.962,113.44361111111091,24.937
68.53441119194031,3.580419,5.962,114.27166666666646,24.937
69.03856444358826,3.580178,5.962,115.09972222222201,24.937
69.52631640434265,3.580951,5.962,115.92777777777756,24.937
70.02632737159729,3.580419,5.962,116.75583333333311,24.937
70.5262987613678,3.581389,5.962,117.58388888888867,24.937
71.02744889259338,3.581076,5.962,118.41194444444422,24.937
71.53458571434021,3.581869,5.962,119.23999999999977,24.937
72.02911257743835,3.581515,5.962,120.06805555555532,24.937
72.53048014640808,3.582527,5.962,120.89611111111087,24.937
73.03244352340698,3.582579,5.962,121.72416666666642,24.937
73.53193092346191,3.583132,5.962,122.55222222222197,25.0
74.04340291023254,3.583091,5.962,123.38027777777752,25.0
74.53979206085205,3.583685,5.962,124.20833333333307,24.937
75.04056906700134,3.583654,5.962,125.03638888888862,24.937
75.52668023109436,3.584395,5.962,125.86444444444417,24.937
76.02909398078918,3.584145,5.962,126.69249999999973,25.0
76.53065347671509,3.585001,5.962,127.52055555555528,25.0
77.0267128944397,3.584886,5.962,128.34861111111084,24.937
77.52655267715454,3.585501,5.962,129.1766666666664,24.937
78.02773666381836,3.585554,5.962,130.00472222222194,24.937
78.52546286582947,3.586305,5.962,130.8327777777775,24.937
79.05112171173096,3.586242,5.962,131.66083333333304,24.937
79.5384042263031,3.587077,5.962,132.4888888888886,25.0
80.03823018074036,3.586733,5.962,133.31694444444415,25.0
80.5461015701294,3.587537,5.962,134.1449999999997,24.937
81.03217768669128,3.58739,5.962,134.97305555555525,24.937
81.53020477294922,3.588079,5.962,135.8011111111108,24.937
82.03216290473938,3.587902,5.962,136.62916666666635,24.937
82.53012919425964,3.588737,5.962,137.4572222222219,25.0
83.03136348724365,3.588549,5.962,138.28527777777745,25.0
83.53093814849854,3.589008,5.962,139.113333333333,25.0
84.03081512451172,3.589154,5.962,139.94138888888855,24.937
84.56690740585327,3.58976,5.962,140.7694444444441,24.937
85.02693176269531,3.58977,5.962,141.59749999999966,24.937
85.53947448730469,3.590459,5.962,142.4255555555552,24.937
86.03884315490723,3.59024,5.962,143.25361111111076,24.937
86.53467583656311,3.590824,5.962,144.0816666666663,24.937
87.02759599685669,3.590918,5.962,144.90972222222186,24.937
87.52856492996216,3.591899,5.962,145.7377777777774,24.937
88.02802729606628,3.591659,5.962,146.56583333333296,24.937
88.52647423744202,3.592317,5.962,147.3938888888885,24.937
89.03047728538513,3.591889,5.962,148.22194444444406,24.937
89.53273272514343,3.592818,5.962,149.0499999999996,24.937
90.07725262641907,3.592661,5.962,149.87805555555516,24.937
90.5271737575531,3.593381,5.962,150.70611111111072,24.937
91.03634142875671,3.593454,5.962,151.53416666666627,24.937
91.53177404403687,3.593893,5.962,152.36222222222182,24.937
92.03881525993347,3.593767,5.962,153.19027777777737,24.937
92.53100061416626,3.594665,5.962,154.01833333333292,24.937
93.02641654014587,3.594644,5.962,154.84638888888847,24.937
93.53122067451477,3.595145,5.962,155.67444444444402,24.937
94.02586221694946,3.595051,5.962,156.50249999999957,24.937
94.52377319335938,3.595719,5.962,157.33055555555512,24.937
95.0280408859253,3.59573,5.962,158.15861111111067,24.937
95.52970600128174,3.596554,5.962,158.98666666666622,24.937
96.02954649925232,3.596105,5.962,159.81472222222177,24.937
96.53279161453247,3.597065,5.962,160.64277777777733,24.937
97.04672002792358,3.597045,5.962,161.47083333333288,24.937
97.53927397727966,3.597744,5.962,162.29888888888843,24.937
98.03572726249695,3.597493,5.962,163.12694444444398,24.937
98.53143882751465,3.598182,5.962,163.95499999999953,24.937
99.03439736366272,3.598099,5.962,164.78305555555508,24.937
99.52823138237,3.598975,5.962,165.61111111111063,24.937
100.02843165397644,3.598788,5.962,166.43916666666618,24.937
100.52706813812256,3.599612,5.962,167.26722222222173,24.937
101.02702069282532,3.599351,5.962,168.09527777777728,24.937
101.52738165855408,3.599925,5.962,168.92333333333283,24.937
102.02743434906006,3.599863,5.962,169.75138888888839,24.937
102.53866291046143,3.600551,5.962,170.57944444444394,24.937
103.03424215316772,3.60027,5.962,171.4074999999995,24.937
103.53868293762207,3.601418,5.962,172.23555555555504,24.937
104.02768921852112,3.601188,5.962,173.0636111111106,24.937
104.55235958099365,3.601835,5.962,173.89166666666614,24.937
105.02817821502686,3.601877,5.962,174.7197222222217,24.937
105.5285394191742,3.602263,5.962,175.54777777777724,24.937
106.02656388282776,3.602315,5.962,176.3758333333328,24.937
106.5313549041748,3.603119,5.962,177.20388888888834,24.937
107.03162360191345,3.602701,5.962,178.0319444444439,24.937
107.53028631210327,3.603776,5.962,178.85999999999945,24.937
108.02923631668091,3.603557,5.962,179.688055555555,24.937
108.53932118415833,3.604392,5.962,180.51611111111055,25.0
109.0383574962616,3.604319,5.962,181.3441666666661,25.0
109.53989052772522,3.604883,5.962,182.17222222222165,24.937
110.08877849578857,3.604851,5.962,183.0002777777772,24.937
110.52994680404663,3.605352,5.962,183.82833333333275,24.937
111.02692413330078,3.605572,5.962,184.6563888888883,24.937
111.52680611610413,3.605989,5.962,185.48444444444385,24.937
112.03209519386292,3.605707,5.962,186.3124999999994,25.0
112.52679061889648,3.606333,5.962,187.14055555555495,25.0
113.02674555778503,3.606532,5.962,187.9686111111105,24.937
113.52710771560669,3.6072,5.962,188.79666666666606,24.937
114.03693795204163,3.6072,5.962,189.6247222222216,24.937
114.53509092330933,3.608097,5.962,190.45277777777716,24.937
115.04669499397278,3.607701,5.962,191.2808333333327,24.937
115.5892653465271,3.608786,5.962,192.10888888888826,24.937
116.03145098686218,3.608536,5.962,192.9369444444438,24.937
116.52639365196228,3.609141,5.962,193.76499999999936,25.0
117.02769470214844,3.608953,5.962,194.5930555555549,25.0
117.52633738517761,3.609663,5.962,195.42111111111046,24.937
118.02827191352844,3.609402,5.962,196.249166666666,24.937
118.53193020820618,3.610352,5.962,197.07722222222156,24.937
119.03138446807861,3.610101,5.962,197.90527777777712,24.937
119.53203511238098,3.61103,5.962,198.73333333333267,25.0
120.04104804992676,3.61056,5.962,199.56138888888822,24.937
120.53994178771973,3.611458,5.962,200.38944444444377,24.937
121.0349817276001,3.611448,5.962,201.21749999999932,24.937
121.52596855163574,3.612063,5.962,202.04555555555487,24.937
122.02671337127686,3.612136,5.962,202.87361111111042,24.937
122.52689409255981,3.612763,5.962,203.70166666666597,24.937
123.02670812606812,3.612397,5.962,204.52972222222152,24.937
123.52961730957031,3.613462,5.962,205.35777777777707,24.937
124.03112554550171,3.613211,5.962,206.18583333333262,24.937
124.5425329208374,3.6139,5.962,207.01388888888818,24.937
125.02650594711304,3.614088,5.962,207.84194444444373,24.937
125.53575468063354,3.614506,5.962,208.66999999999928,24.937
126.02905702590942,3.61437,5.962,209.49805555555483,24.937
126.5398919582367,3.615101,5.962,210.32611111111038,24.937
127.0312569141388,3.615007,5.962,211.15416666666593,24.937
127.53145956993103,3.615904,5.962,211.98222222222148,24.937
128.02650022506714,3.615309,5.962,212.81027777777703,24.937
128.52705240249634,3.616353,5.962,213.63833333333258,24.937
129.0278787612915,3.616332,5.962,214.46638888888813,24.937
129.52699995040894,3.616917,5.962,215.29444444444368,24.937
130.06684160232544,3.617084,5.962,216.12249999999923,24.875
130.52696537971497,3.617532,5.962,216.95055555555479,24.875
131.029070854187,3.617344,5.962,217.77861111111034,24.875
131.53886342048645,3.618211,5.962,218.6066666666659,24.937
132.0365047454834,3.618221,5.962,219.43472222222144,24.937
132.54077315330505,3.619077,5.962,220.262777777777,24.937
133.02688145637512,3.618879,5.962,221.09083333333254,24.937
133.52959966659546,3.619599,5.962,221.9188888888881,24.937
134.0305986404419,3.619348,5.962,222.74694444444364,24.937
134.5308210849762,3.619776,5.962,223.5749999999992,24.937
135.03058314323425,3.61963,5.962,224.40305555555474,24.937
135.5775728225708,3.620768,5.962,225.2311111111103,24.937
136.02668237686157,3.620497,5.962,226.05916666666585,24.937
136.52718377113342,3.621394,5.962,226.8872222222214,24.937
137.030353307724,3.621196,5.962,227.71527777777695,24.937
137.54028511047363,3.622062,5.962,228.5433333333325,24.937
138.03911018371582,3.622072,5.962,229.37138888888805,24.937
138.5262050628662,3.622542,5.962,230.1994444444436,24.937
139.03088355064392,3.622313,5.962,231.02749999999915,24.937
139.52845311164856,3.623429,5.962,231.8555555555547,24.875
140.02831506729126,3.623001,5.962,232.68361111111025,24.875
140.52691435813904,3.623888,5.962,233.5116666666658,24.875
141.0307912826538,3.623617,5.962,234.33972222222135,24.875
141.5287652015686,3.624358,5.962,235.1677777777769,24.937
142.0306899547577,3.624452,5.962,235.99583333333246,24.937
142.53066039085388,3.624661,5.962,236.823888888888,24.937
143.04232048988342,3.625151,5.962,237.65194444444356,24.937
143.53396606445312,3.625663,5.962,238.4799999999991,24.937
144.03920125961304,3.625777,5.962,239.30805555555466,24.937
144.534850358963,3.62632,5.962,240.1361111111102,24.937
145.0277771949768,3.626289,5.962,240.96416666666576,24.937
145.53237414360046,3.626759,5.962,241.7922222222213,24.937
146.0312397480011,3.626571,5.962,242.62027777777686,24.937
146.53334426879883,3.6275,5.962,243.4483333333324,24.875
147.02814078330994,3.627781,5.962,244.27638888888796,24.875
147.52701330184937,3.627896,5.962,245.10444444444352,25.0
148.0313937664032,3.627646,5.962,245.93249999999907,25.0
148.53000473976135,3.628731,5.962,246.76055555555462,24.937
149.04077911376953,3.628543,5.962,247.58861111111017,24.937
149.54060101509094,3.62895,5.962,248.41666666666572,24.937
150.06556034088135,3.629086,5.962,249.24472222222127,24.937
150.53179574012756,3.62966,5.962,250.07277777777682,24.937
151.0307695865631,3.629608,5.962,250.90083333333237,24.937
151.52754616737366,3.630558,5.962,251.72888888888792,24.937
152.02880859375,3.630338,5.962,252.55694444444347,24.937
152.52658772468567,3.630756,5.962,253.38499999999902,24.937
153.02849054336548,3.631027,5.962,254.21305555555458,24.937
153.52776885032654,3.631894,5.962,255.04111111111013,24.937
154.02746510505676,3.631601,5.962,255.86916666666568,24.937
154.53713464736938,3.632259,5.962,256.6972222222212,24.937
155.03947520256042,3.63205,5.962,257.5252777777768,24.937
155.58302450180054,3.632833,5.962,258.3533333333324,24.937
156.027277469635,3.632875,5.962,259.18138888888797,24.937
156.52950239181519,3.633167,5.962,260.00944444444355,24.937
157.02932024002075,3.63324,5.962,260.8374999999991,24.937
157.5300269126892,3.634158,5.962,261.6655555555547,24.937
158.02688717842102,3.63395,5.962,262.4936111111103,24.937
158.5321934223175,3.634805,5.962,263.32166666666586,24.937
159.02718329429626,3.634565,5.962,264.14972222222144,24.937
159.52679562568665,3.63539,5.962,264.977777777777,24.937
160.04087829589844,3.635035,5.962,265.8058333333326,24.937
160.5348436832428,3.636058,5.962,266.6338888888882,24.937
161.0868546962738,3.635755,5.962,267.46194444444376,24.937
161.52654385566711,3.636674,5.962,268.28999999999934,24.937
162.02701687812805,3.636225,5.962,269.1180555555549,24.937
162.52952361106873,3.63731,5.962,269.9461111111105,24.937
163.0294463634491,3.636799,5.962,270.7741666666661,24.937
163.52991938591003,3.637769,5.962,271.60222222222166,24.937
164.02975487709045,3.637582,5.962,272.43027777777723,24.937
164.52929544448853,3.638051,5.962,273.2583333333328,24.937
165.0282542705536,3.638229,5.962,274.0863888888884,24.937
165.53345680236816,3.638991,5.962,274.914444444444,24.937
166.03890204429626,3.638573,5.962,275.74249999999955,24.937
166.53883957862854,3.639711,5.962,276.57055555555513,24.937
167.02700924873352,3.639419,5.962,277.3986111111107,24.937
167.52725553512573,3.640254,5.962,278.2266666666663,24.937
168.0279381275177,3.639951,5.962,279.05472222222187,24.937
